ID,Count
18288,435.91106879935285
18289,409.5348132295841
18290,382.96400605798004
18291,362.3522944369344
18292,349.29639039042934
18293,342.3045528743804
18294,341.4113718224612
18295,350.3078674547102
18296,372.8582246930976
18297,407.028571215401
18298,442.72270866505596
18299,466.9349104863037
18300,472.66258760955554
18301,463.9384571468796
18302,452.3554134388739
18303,447.95467063395455
18304,452.29787978949486
18305,459.289043349578
18306,462.0830445674504
18307,459.1337576777878
18308,453.96569323598334
18309,449.7752827865984
18310,444.93063119768084
18311,434.0987740961658
18312,413.73793297084353
18313,386.2449834743411
18314,358.5718752455926
18315,336.87930263370515
18316,322.771353720959
18317,314.7639500794964
18318,312.89958277045855
18319,320.87735817159233
18320,342.56967387238694
18321,375.95093361784427
18322,410.93321139185116
18323,434.5189786644269
18324,439.71369674653914
18325,430.55791009730484
18326,418.652040703725
18327,414.04445351994536
18328,418.30349677736484
18329,425.33934087597277
18330,428.31243428497135
18331,425.6815431105381
18332,420.97532958969924
18333,417.3935745020721
18334,413.30687262194505
18335,403.3838393856039
18336,384.0833220505852
18337,357.8018314991831
18338,331.48993357538234
18339,311.30589983166806
18340,298.85034547783977
18341,292.63466728509036
18342,292.6957871771714
18343,302.7262152126539
18344,326.5907522201856
18345,362.2552409855785
18346,399.6222759020796
18347,425.68398481859754
18348,433.4346846411847
18349,426.9030460616996
18350,417.67696694630934
18351,415.7917237193606
18352,422.80210381107383
18353,432.60434206603713
18354,438.34467865881277
18355,438.4675042485631
18356,436.4870466528131
18357,435.58870301328716
18358,434.12884554506746
18359,426.76213799836927
18360,409.933855046874
18361,386.02741972635164
18362,361.9808968007037
18363,343.940740902074
18364,333.4965263677304
18365,329.1494705689944
18366,330.9272556738153
18367,342.5141617887202
18368,367.7678310680289
18369,404.6480711042796
18370,443.05260702147433
18371,469.9698956235656
18372,478.3918028582897
18373,472.3457797971299
18374,463.41973659612285
18375,461.6501838082029
18376,468.5943442668698
18377,478.1520586900205
18378,483.4743029127443
18379,483.01128293487557
18380,480.28406261277
18381,478.48582861195314
18382,475.9816214296147
18383,467.43557039682935
18384,449.3031257426882
18385,423.97850373715283
18386,398.41108372943796
18387,378.7590569518953
18388,366.6240549397346
18389,360.5195704396762
18390,360.48567672322747
18391,370.2190592510851
18392,393.58968025088546
18393,428.5694854609983
18394,465.06806335636725
18395,490.08537104241844
18396,496.62432886522856
18397,488.72291964002955
18398,477.9789925943887
18399,474.43834194127925
18400,479.66676376705175
18401,487.5719147416658
18402,491.3117908361759
18403,489.3427924030337
18404,485.19133053180764
18405,482.055079270787
18406,478.3027024081997
18407,468.6010925276106
18408,449.4076151074595
18409,423.11757331912236
18410,396.680631880782
18411,376.25449930811874
18412,363.43959583357906
18413,356.7475192224712
18414,356.21581371192724
18415,365.53805530132587
18416,388.5805732047469
18417,423.31121595344473
18418,459.6350716862004
18419,484.547256053331
18420,491.04556901356756
18421,483.1626556950816
18422,472.490870712159
18423,469.0704151877253
18424,474.46144953945037
18425,482.566004981928
18426,486.5365114169289
18427,484.82390763304596
18428,480.9492883518242
18429,478.10519242069915
18430,474.65536062580526
18431,465.26200068792207
18432,446.37805215891206
18433,420.3946668836853
18434,394.2576434514441
18435,374.12111517010277
18436,361.58221903688957
18437,355.14955823620994
18438,354.8579637427368
18439,364.3985686583271
18440,387.63551553927505
18441,422.5347056960144
18442,458.99950051578367
18443,484.02348876776193
18444,490.60312173052625
18445,482.76985186484643
18446,472.1149749728244
18447,468.67774563889844
18448,474.01746952648216
18449,482.03539597112166
18450,485.8832290015708
18451,484.01122310803726
18452,479.9398186711746
18453,476.8609216441989
18454,473.1376562087807
18455,463.4316281573707
18456,444.19519182046594
18457,417.8189362502653
18458,391.24812907905664
18459,370.63641745804216
18460,357.58051341141066
18461,350.5886758953666
18462,349.69549484356094
18463,358.59199047584286
18464,381.1423477140765
18465,415.31269423506944
18466,451.0068316863455
18467,475.21903350653724
18468,480.9467106305476
18469,472.2225801678204
18470,460.6395364601007
18471,456.23879365507224
18472,460.58200281070566
18473,467.5731663707988
18474,470.3671675884193
18475,467.4178806989236
18476,462.2498162570502
18477,458.0594058075773
18478,453.214754218926
18479,442.38289711722905
18480,422.0220559915645
18481,394.5291064954366
18482,366.8559982666529
18483,345.1634256547078
18484,331.0554767423651
18485,323.0480731009714
18486,321.1837057915775
18487,329.16148119276437
18488,350.85379689368267
18489,384.2350566391796
18490,419.21733441288626
18491,442.803101685649
18492,447.99781976752394
18493,438.84203311824007
18494,426.9361637247207
18495,422.3285765410359
18496,426.58761979849703
18497,433.6234638972405
18498,436.5965573063521
18499,433.965666131608
18500,429.2594526106532
18501,425.6776975235082
18502,421.59099564297514
18503,411.6679624066863
18504,392.36744507169266
18505,366.0859545198731
18506,339.77405659622957
18507,319.5900228526904
18508,307.1344684988166
18509,300.91879030606987
18510,300.979910198246
18511,311.0103382337752
18512,334.8748752411514
18513,370.53936400695795
18514,407.9063989233934
18515,433.96810783976775
18516,441.7188076625816
18517,435.18716908262786
18518,425.96108996752764
18519,424.0758467404706
18520,431.0862268323445
18521,440.8884650873208
18522,446.6288016797758
18523,446.7516272696807
18524,444.7711696738627
18525,443.8728260343264
18526,442.4129685663579
18527,435.0462610194835
18528,418.21797806793387
18529,394.31154274916554
18530,370.265019821729
18531,352.2248639231365
18532,341.7806493891074
18533,337.4335935904401
18534,339.2113786949251
18535,350.7982848099581
18536,376.0519540893879
18537,412.93219412524576
18538,451.3367300428081
18539,478.2540186448399
18540,486.6759258792536
18541,480.6299028180443
18542,471.70385961709894
18543,469.93430682928823
18544,476.87846728813554
18545,486.43618171129606
18546,491.75842593394884
18547,491.2954059560784
18548,488.5681856337935
18549,486.7699516334049
18550,484.26574445060874
18551,475.7196934178762
18552,457.5872487637714
18553,432.2626267578592
18554,406.69520675029884
18555,387.04317997292804
18556,374.9081779607359
18557,368.8036934606814
18558,368.7697997443068
18559,378.50318227221334
18560,401.87380327185593
18561,436.85360848236195
18562,473.3521863776566
18563,498.3694940635658
18564,504.9084518866131
18565,497.0070426612998
18566,486.2631156154079
18567,482.722464962407
18568,487.9508867882846
18569,495.85603776286507
18570,499.59591385710576
18571,497.6269154241059
18572,493.4754535528094
18573,490.3392022917982
18574,486.5868254294806
18575,476.88521554860995
18576,457.6917381285684
18577,431.4016963402422
18578,404.96475490186805
18579,384.5386223291514
18580,371.72371885492475
18581,365.0316422438842
18582,364.49993673299883
18583,373.8221783225492
18584,396.86469622609195
18585,431.5953389743773
18586,467.9191947074896
18587,492.8313790745539
18588,499.3296920345746
18589,491.44677871603915
18590,480.7749937331773
18591,477.3545382087653
18592,482.7455725606904
18593,490.85012800317855
18594,494.8206344381156
18595,493.1080306542186
18596,489.2334113728377
18597,486.3893154416971
18598,482.93948364696314
18599,473.54612370900537
18600,454.6621751816071
18601,428.67878990438373
18602,402.541766473802
18603,382.4052381911384
18604,369.86634205788283
18605,363.43368125720883
18606,363.1420867640571
18607,372.6826916795121
18608,395.91963856022636
18609,430.8188287173726
18610,467.28362353707496
18611,492.30761178890754
18612,498.88724475191503
18613,491.0539748858034
18614,480.399097993841
18615,476.96186866004604
18616,482.301592547366
18617,490.31951899237447
18618,494.16735202252295
18619,492.29534612911675
18620,488.22394169218325
18621,485.1450446651898
18622,481.4217792300523
18623,471.7157511783605
18624,452.47931484157806
18625,426.1030592713779
18626,399.53225210013505
18627,378.9205404790948
18628,365.8646364324229
18629,358.8727989168058
18630,357.9796178646153
18631,366.8761134962414
18632,389.4264707353795
18633,423.59681725597454
18634,459.29095470762354
18635,483.5031565276688
18636,489.2308336515522
18637,480.50670318919185
18638,468.92365948150535
18639,464.5229166761646
18640,468.86612583199746
18641,475.85728939210276
18642,478.6512906095818
18643,475.7020037200523
18644,470.533939278388
18645,466.34352882854597
18646,461.4988772399306
18647,450.6670201382843
18648,430.3061790126538
18649,402.8132295161702
18650,375.14012128754393
18651,353.4475486757923
18652,339.33959976332625
18653,331.3321961219368
18654,329.46782881286066
18655,337.4456042139332
18656,359.13791991497334
18657,392.51917966051496
18658,427.50145743416203
18659,451.0872247067806
18660,456.28194278896035
18661,447.1261561392464
18662,435.2202867457845
18663,430.61269956216364
18664,434.8717428193647
18665,441.90758691805905
18666,444.88068032750635
18667,442.24978915282975
18668,437.54357563164194
18669,433.9618205443253
18670,429.8751186642457
18671,419.9520854285562
18672,400.65156809281075
18673,374.37007754099915
18674,348.0581796173178
18675,327.87414587382443
18676,315.41859151981066
18677,309.2029133275072
18678,309.26403321932423
18679,319.2944612549817
18680,343.1589982624836
18681,378.82348702790676
18682,416.19052194466724
18683,442.25223086089426
18684,450.00293068356774
18685,443.4712921040431
18686,434.2452129885807
18687,432.35996976164495
18688,439.3703498536057
18689,449.17258810859374
18690,454.9129247009796
18691,455.03575029086426
18692,453.05529269525505
18693,452.15694905526925
18694,450.69709158734867
18695,443.33038404052365
18696,426.50210108871465
18697,402.5956657703286
18698,378.54914284260445
18699,360.5089869442111
18700,350.0647724102829
18701,345.71771661147534
18702,347.4955017157754
18703,359.0824078311877
18704,384.3360771091624
18705,421.21631714655456
18706,459.6208530638063
18707,486.5381416659393
18708,494.9600489006663
18709,488.91402583903846
18710,479.9879826381509
18711,478.2184298504571
18712,485.1625903090327
18713,494.72030473214096
18714,500.0425489551458
18715,499.57952897711243
18716,496.8523086547595
18717,495.0540746543716
18718,492.5498674719166
18719,484.0038164389033
18720,465.8713717849094
18721,440.54674977899646
18722,414.9793297714004
18723,395.32730299407746
18724,383.1923009817239
18725,377.0878164816733
18726,377.05392276535525
18727,386.7873052933937
18728,410.1579262931617
18729,445.13773150330235
18730,481.63630939895023
18731,506.65361708471346
18732,513.1925749076294
18733,505.29116568270075
18734,494.5472386366758
18735,491.00658798354806
18736,496.2350098095187
18737,504.14016078412385
18738,507.8800368782972
18739,505.91103844528703
18740,501.7595765741413
18741,498.6233253127941
18742,494.87094845051297
18743,485.1693385696938
18744,465.9758611493088
18745,439.6858193613618
18746,413.24887792295425
18747,392.82274535017183
18748,380.00784187592603
18749,373.3157652648905
18750,372.78405975430763
18751,382.1063013437366
18752,405.14881924740257
18753,439.879461995746
18754,476.20331772853837
18755,501.1155020957105
18756,507.6138150555927
18757,499.73090173700706
18758,489.0591167542047
18759,485.63866122992306
18760,491.0296955815587
18761,499.13425102399594
18762,503.1047574592913
18763,501.39215367529596
18764,497.5175343938461
18765,494.6734384631262
18766,491.2236066679983
18767,481.83024673000494
18768,462.94629820272394
18769,436.96291292733844
18770,410.8258894948797
18771,390.68936121308883
18772,378.1504650788606
18773,371.7178042780672
18774,371.4262097851205
18775,380.9668147006381
18776,404.203761581553
18777,439.1029517383267
18778,475.5677465583792
18779,500.59173481006644
18780,507.17136777293547
18781,499.33809790721284
18782,488.68322101512047
18783,485.2459916811803
18784,490.58571556859573
18785,498.60364201361523
18786,502.45147504369373
18787,500.57946915018806
18788,496.50806471356054
18789,493.42916768618056
18790,489.7059022510832
18791,479.9998741994409
18792,460.76343786234264
18793,434.3871822925122
18794,407.8163751212367
18795,387.20466350011577
18796,374.1487594537631
18797,367.1569219377921
18798,366.26374088591024
18799,375.1602365174318
18800,397.71059375669233
18801,431.8809402773316
18802,467.57507772712404
18803,491.7872795489444
18804,497.5149566725131
18805,488.79082621019234
18806,477.20778250250464
18807,472.80703969728233
18808,477.1502488528268
18809,484.1414124128801
18810,486.93541363073206
18811,483.9861267411145
18812,478.81806229937916
18813,474.6276518499453
18814,469.78300026102215
18815,458.9511431594261
18816,438.59030203382946
18817,411.0973525372657
18818,383.4242443086042
18819,361.73167169688253
18820,347.623722784286
18821,339.6163191429026
18822,337.7519518339029
18823,345.72972723501834
18824,367.42204293590544
18825,400.80330268192813
18826,435.78558045549926
18827,459.37134772797015
18828,464.56606580994526
18829,455.4102791606231
18830,443.50440976703254
18831,438.8968225832792
18832,443.15586584057564
18833,450.1917099392819
18834,453.16480334844624
18835,450.5339121739355
18836,445.8276986530568
18837,442.2459435653438
18838,438.15924168529705
18839,428.23620844963847
18840,408.9356911151579
18841,382.65420056210974
18842,356.34230263990287
18843,336.15826889485237
18844,323.7027145411735
18845,317.48703634850284
18846,317.54815624039884
18847,327.57858427616145
18848,351.4431212837835
18849,387.1076100492492
18850,424.47464496573866
18851,450.5363538821513
18852,458.287053704601
18853,451.75541512502735
18854,442.5293360096259
18855,440.6440927827118
18856,447.6544728748765
18857,457.4567111294361
18858,463.1970477221198
18859,463.31987331190334
18860,461.3394157162234
18861,460.44107207672624
18862,458.98121460842486
18863,451.61450706165135
18864,434.78622410986367
18865,410.87978879103497
18866,386.8332658637208
18867,368.79310996535185
18868,358.3488954312108
18869,354.00183963240875
18870,355.77962473679406
18871,367.36653085132167
18872,392.6202001301463
18873,429.50044016608456
18874,467.90497608513994
18875,494.82226468607746
18876,503.2441719217126
18877,497.19814886046436
18878,488.27210565944733
18879,486.5025528716291
18880,493.44671333022666
18881,503.004427753348
18882,508.326671976052
18883,507.86365199821654
18884,505.13643167579283
18885,503.338197675382
18886,500.8339904929609
18887,492.28793945999604
18888,474.155494805679
18889,448.83087280012063
18890,423.26345279248847
18891,403.6114260150801
18892,391.47642400308075
18893,385.37193950309995
18894,385.33804578643446
18895,395.0714283146002
18896,418.44204931448957
18897,453.42185452467356
18898,489.9204324200212
18899,514.9377401059677
18900,521.4766979286387
18901,513.5752887036653
18902,502.8313616577032
18903,499.2907110046094
18904,504.5191328306009
18905,512.4242838053681
18906,516.164159899621
18907,514.1951614663593
18908,510.0436995951431
18909,506.9074483342083
18910,503.155071471538
18911,493.453461590769
18912,474.25998417041757
18913,447.9699423820538
18914,421.533000943801
18915,401.10686837122864
18916,388.291964896916
18917,381.599888285886
18918,381.06818277537934
18919,390.3904243648339
18920,413.4329422683444
18921,448.16358501711466
18922,484.4874407498278
18923,509.39962511685513
18924,515.8979380769736
18925,508.0150247579798
18926,497.34323977546785
18927,493.9227842510614
18928,499.31381860279856
18929,507.41837404524637
18930,511.38888048022636
18931,509.67627669637574
18932,505.8016574148559
18933,502.95756148412414
18934,499.5077296892746
18935,490.11436975108745
18936,471.23042122348005
18937,445.24703594846125
18938,419.11001251596906
18939,398.97348423412467
18940,386.43458810023174
18941,380.0019272995074
18942,379.71033280579763
18943,389.25093772182987
18944,412.4878846014616
18945,447.38707475968505
18946,483.8518695796641
18947,508.87585783131
18948,515.4554907939374
18949,507.6222209281697
18950,496.96734403613715
18951,493.53011470224936
18952,498.86983858983683
18953,506.88776503486616
18954,510.7355980648734
18955,508.8635921713658
18956,504.7921877345691
18957,501.7132907076238
18958,497.99002527212355
18959,488.2839972205347
18960,469.04756088345476
18961,442.67130531319367
18962,416.10049814207235
18963,395.48878652114024
18964,382.4328824747443
18965,375.4410449587783
18966,374.5478639069646
18967,383.4443595385557
18968,405.9947167776612
18969,440.16506329872556
18970,475.85920074840186
18971,500.071402570076
18972,505.79907969386085
18973,497.0749492315113
18974,485.4919055235175
18975,481.0911627184571
18976,485.43437187405084
18977,492.42553543412373
18978,495.21953665164165
18979,492.27024976225033
18980,487.1021853204461
18981,482.9117748709907
18982,478.06712328225814
18983,467.23526618038306
18984,446.8744250549188
18985,419.381475558356
18986,391.7083673296605
18987,370.0157947178876
18988,355.90784580561444
18989,347.90044216429914
18990,346.0360748550201
18991,354.0138502562626
18992,375.70616595726983
18993,409.0874257028389
18994,444.0697034767676
18995,467.6554707492006
18996,472.85018883093994
18997,463.6944021815691
18998,451.78853278803973
18999,447.18094560432905
19000,451.4399888618484
19001,458.4758329605628
19002,461.44892636964096
19003,458.8180351950956
19004,454.1118216740455
19005,450.5300665863232
19006,446.44336470645976
19007,436.5203314707091
19008,417.21981413626526
19009,390.93832358280963
19010,364.6264256607594
19011,344.4423919158882
19012,331.9868375621569
19013,325.7711593694879
19014,325.83227926170065
19015,335.8627072973703
19016,359.7272443047493
19017,395.39173307062896
19018,432.7587679870545
19019,458.82047690332485
19020,466.57117672600265
19021,460.039538146018
19022,450.813459030679
19023,448.92821580382156
19024,455.93859589569115
19025,465.74083415063734
19026,471.48117074307135
19027,471.60399633300887
19028,469.6235387372603
19029,468.7251950977523
19030,467.26533762971513
19031,459.89863008266184
19032,443.07034713102604
19033,419.163911812108
19034,395.1173888847585
19035,377.0772329863348
19036,366.63301845259883
19037,362.2859626538643
19038,364.06374775790414
19039,375.6506538725516
19040,400.90432315149855
19041,437.7845631870455
19042,476.18909910646954
19043,503.10638770726126
19044,511.52829494243525
19045,505.4822718813783
19046,496.55622868061096
19047,494.7866758926364
19048,501.73083635148737
19049,511.2885507746175
19050,516.610794997249
19051,516.1477750194107
19052,513.4205546971948
19053,511.6223206963923
19054,509.1181135140165
19055,500.5720624811012
19056,482.4396178267746
19057,457.11499582080177
19058,431.54757581332854
19059,411.895549036126
19060,399.7605470240689
19061,393.65606252409214
19062,393.62216880775435
19063,403.3555513357951
19064,426.72617233580627
19065,461.7059775460344
19066,498.20455544131084
19067,523.221863127115
19068,529.7608209500326
19069,521.85941172463
19070,511.11548467872615
19071,507.57483402575036
19072,512.8032558514676
19073,520.7084068261806
19074,524.4482829207936
