ID,Count
18288,510.5647842696289
18289,488.07506451865135
18290,465.4511090823172
18291,447.8963980168279
18292,436.7650967974268
18293,430.8743744692772
18294,430.424036350707
18295,438.70680912893965
18296,459.01117504754717
18297,489.4013674871576
18298,520.9624469929312
18299,542.3633456841332
18300,547.5847176850071
18301,540.208352515423
18302,530.3355074649076
18303,526.6782084861098
18304,530.588016512287
18305,536.7897870963415
18306,539.3481156128398
18307,536.8747897337241
18308,532.3372955305996
18309,528.4399334949784
18310,523.7854324177624
18311,513.8474599565621
18312,495.64907562983774
18313,471.2667266074063
18314,446.61972371292666
18315,426.926194066722
18316,413.5571794389724
18317,405.3488194236994
18318,402.52181997569164
18319,408.39154676285784
18320,426.2706420177506
18321,454.2487794927567
18322,483.43747923293597
18323,502.53287297479284
18324,505.5432610158288
18325,496.0782208357709
18326,484.26662704839566
18327,478.84763589053097
18328,481.19913489665646
18329,486.07118945079947
18330,487.5521822364516
18331,484.275971013774
18332,479.23011469327616
18333,475.13672747738264
18334,470.6138522863439
18335,461.1477553408754
18336,443.7711904324044
18337,420.5672357111207
18338,397.458642546707
18339,379.66369466721886
18340,368.55024802208305
18341,362.9478914599055
18342,363.06742932350807
18343,372.2110255412007
18344,393.67490759679777
18345,425.5292442504302
18346,458.8631175764524
18347,482.3474785573976
18348,489.96292512291205
18349,485.2890605990889
18350,478.4227894655927
18351,478.06960065483105
18352,485.57233578372956
18353,495.64497051007123
18354,502.3391013370798
18355,504.2514594533239
18356,504.3324976178061
18357,505.26760583654533
18358,505.63884302205196
18359,500.8975825095129
18360,488.0431160347849
18361,469.1268152265684
18362,450.0417865569677
18363,435.9790145206674
18364,428.2816604098419
18365,425.7574538657036
18366,428.5983758210431
18367,440.09097024178834
18368,463.51918126801786
18369,496.9443282460197
18370,531.4501382581847
18371,555.7057248649229
18372,563.6933518437075
18373,558.9977402352167
18374,551.7242763647481
18375,550.5901722596094
18376,556.9530774486988
18377,565.5446723120712
18378,570.4369376458542
18379,570.2494246918727
18380,567.957574606005
18381,566.2736463394929
18382,563.8081435694737
18383,556.042142166528
18384,540.005566575856
18385,517.7810179976518
18386,495.29309419083376
18387,477.76419958734675
18388,466.5685168485155
18389,460.54408083257783
18390,459.9121571403808
18391,467.9872660514104
18392,488.0797516234653
18393,518.2755113553537
18394,549.6808086284675
18395,570.9850589171665
18396,576.188430488527
18397,568.8910194454166
18398,559.2109579422024
18399,555.8755077448889
18400,560.2496384706416
18401,567.0696205996882
18402,570.4093274497463
18403,568.887569480792
18404,565.4765086443073
18405,562.8827101127574
18406,559.7087200446332
18407,551.4255685883763
18408,535.0512439003484
18409,512.6547372402794
18410,490.1455959119658
18411,472.7299795062365
18412,461.76488722686435
18413,456.07049381626484
18414,455.8497927540133
18415,464.3988840525643
18416,485.0098029741405
18417,515.7505017131315
18418,547.7099030292042
18419,569.5609137775554
18420,575.288236204338
18421,568.4777342719055
18422,559.2347115260206
18423,556.2751506694723
18424,560.9544124926313
18425,568.0009229381315
18426,571.4825415245396
18427,570.0139339223726
18428,566.5649961947203
18429,563.8418882326545
18430,560.4485656088858
18431,551.8592099860166
18432,535.0966051628742
18433,512.2360604574927
18434,489.1948201286402
18435,471.18795656331906
18436,459.5824174848274
18437,453.2091674319516
18438,452.2826250918121
18439,460.11073686616163
18440,479.9975861563813
18441,510.0231536476439
18442,541.2881508208276
18443,562.4768178619784
18444,567.5845270051398
18445,560.2069516200968
18446,550.4581604575739
18447,547.0616899355405
18448,551.3790946033447
18449,558.1435067912101
18450,561.4259006173387
18451,559.842384763148
18452,556.3625728331558
18453,553.6905897539268
18454,550.4266040044041
18455,542.0392860118618
18456,525.5442395945306
18457,503.0080075824868
18458,480.3375893925729
18459,462.7364669533521
18460,451.55880760841256
18461,445.6217822655088
18462,445.125198099864
18463,453.36178364960176
18464,473.6200230036294
18465,503.96415138122717
18466,535.4792311644438
18467,556.8341962952851
18468,562.0097027231038
18469,554.5875417808172
18470,544.6689725677236
18471,540.9660228384915
18472,544.8302553228805
18473,550.9865273631736
18474,553.4994361167865
18475,550.9807710327126
18476,546.398019951429
18477,542.455485127488
18478,537.7558971080806
18479,527.7729252990902
18480,509.52963096107175
18481,485.1024629994798
18482,460.4107339645493
18483,440.6725726973268
18484,427.2590226814889
18485,419.00622521588025
18486,416.1348879533747
18487,421.96037825321633
18488,439.79534003070387
18489,467.729448713296
18490,496.8742260134567
18491,515.9258053280294
18492,518.892488605494
18493,509.38385497003486
18494,497.52878067112005
18495,492.06642357328576
18496,494.3746728302807
18497,499.2035954376254
18498,500.64157568179945
18499,497.32247291702754
18500,492.23384764068294
18501,488.09781563320234
18502,483.53242138252557
18503,474.02393267116184
18504,456.6051048418188
18505,433.35901758743535
18506,410.2084238127198
18507,392.3716087705793
18508,381.21642992665204
18509,375.57247763714537
18510,375.65055774326527
18511,384.7528356623495
18512,406.17554035812327
18513,437.98884206219606
18514,471.2818243094268
18515,494.7254395348314
18516,502.30028711112385
18517,497.58597179675064
18518,490.6793994962759
18519,490.2860605553626
18520,497.7487979958392
18521,507.78158886990246
18522,514.4360310656233
18523,516.3088571476712
18524,516.3505212396394
18525,517.2464147033124
18526,517.5785977967946
18527,512.7984451903837
18528,499.9052499456086
18529,480.9503850080347
18530,461.82695815038244
18531,447.7259551668275
18532,439.9905386328096
18533,437.4284394635429
18534,440.2316398557069
18535,451.6866850295105
18536,475.07752036781227
18537,508.46546644910643
18538,542.9342515790522
18539,567.1529905285171
18540,575.1039482759764
18541,570.3718470529141
18542,563.0620743639088
18543,561.8918434050418
18544,568.2188048630197
18545,576.7746402648881
18546,581.631331543064
18547,581.4084310648224
18548,579.0813810999808
18549,577.3624417040717
18550,574.862117644926
18551,567.0614858757662
18552,550.9904719113371
18553,528.7316780104682
18554,506.2097029805327
18555,488.64695228956094
18556,477.4176096240722
18557,471.3597108563473
18558,470.69452258993647
18559,478.7365660955591
18560,498.79618641064445
18561,528.9592820031689
18562,560.3321172106271
18563,581.6041084532691
18564,586.7754249325423
18565,579.4461636730862
18566,569.7344577403487
18567,566.3675698000519
18568,570.7104703566204
18569,577.4994307661959
18570,580.8083252105802
18571,579.2559650030648
18572,575.8145129353143
18573,573.1905350091641
18574,569.9865782004692
18575,561.6736734625349
18576,545.2698097461908
18577,522.8439790925263
18578,500.3057295752248
18579,482.86122154319935
18580,471.8674549466266
18581,466.14460526163145
18582,465.89566668985105
18583,474.41673995469006
18584,494.9998610161575
18585,525.7129827543466
18586,557.6450286044933
18587,579.4689060827031
18588,585.1693180856041
18589,578.332129213736
18590,569.062643638785
18591,566.076844677214
18592,570.7300937213728
18593,577.7508173030686
18594,581.2068755184574
18595,579.7129346034538
18596,576.238891174095
18597,573.4909056626901
18598,570.0729341707555
18599,561.459158877125
18600,544.6723640867117
18601,521.787859605118
18602,498.722890177361
18603,480.69252865242345
18604,469.0637232129076
18605,462.66743883979154
18606,461.7180946515533
18607,469.5236374678953
18608,489.388151097398
18609,519.3916166199981
18610,550.6347458978059
18611,571.8017794870264
18612,576.888089979763
18613,569.489351090073
18614,559.7196319029534
18615,556.3024691568517
18616,560.5994177092421
18617,567.3436101876176
18618,570.6060209932239
18619,569.0027590802732
18620,565.5034383124082
18621,562.8121838638447
18622,559.529164448944
18623,551.1230507171864
18624,534.6094466984555
18625,512.0548954208956
18626,489.36639648780783
18627,471.74743200197116
18628,460.55216946895445
18629,454.59777994669446
18630,454.08407074711664
18631,462.3037705342307
18632,482.54536351193565
18633,512.8730849982168
18634,544.3719974662264
18635,565.7110349337172
18636,570.8708534155633
18637,563.4332442978327
18638,553.4994667201278
18639,549.7815484655811
18640,553.6310522817204
18641,559.7728355147744
18642,562.2714953149401
18643,559.7388211121827
18644,555.1423007160074
18645,551.1862363370365
18646,546.4733584682263
18647,536.4773364481575
18648,518.221231458516
18649,493.7814923137312
18650,469.0774314622423
18651,449.3271776303161
18652,435.9017741751355
18653,427.63736225807827
18654,424.75464938249627
18655,430.56900274550287
18656,448.3930660899559
18657,476.3165146582541
18658,505.4508699664548
18659,524.4922652033164
18660,527.4490020982792
18661,517.9306595430872
18662,506.06611354573334
18663,500.59452171601623
18664,502.89377294180275
18665,507.71393394178745
18666,509.14338871399997
18667,505.8159963123087
18668,500.71931692262746
18669,496.5754660031113
18670,492.0024877082598
18671,482.4866494749293
18672,465.0607062880821
18673,441.8077374750113
18674,418.6504955608728
18675,400.8072654088617
18676,389.64590408336255
18677,383.9960015293211
18678,384.0683631636383
18679,393.16515397084703
18680,414.5826024692765
18681,446.39087843425466
18682,479.67906493505745
18683,503.11811392813706
18684,510.6886242983397
18685,505.97020030557087
18686,499.05974734351213
18687,498.6627552384861
18688,506.1220664808582
18689,516.1516575812897
18690,522.8031258757048
18691,524.6732033662206
18692,524.7123436036652
18693,525.6059373655341
18694,525.9360443171938
18695,521.1540385242987
18696,508.25921243377553
18697,489.3029383674832
18698,470.17832346206427
18699,456.0763528679905
18700,448.340188505036
18701,445.7775606234674
18702,448.5804507449119
18703,460.035403405481
18704,483.42636329079585
18705,516.8146502792232
18706,551.2839919575738
18707,575.5035023745684
18708,583.4554457747104
18709,578.7245436450016
18710,571.4161827381492
18711,570.247575487233
18712,576.5763718065198
18713,585.1342524420418
18714,589.993198535487
18715,589.7727616531803
18716,587.448383256051
18717,585.7323225809691
18718,583.2350835681768
18719,575.4377423330341
18720,559.3702235452594
18721,537.1151286084083
18722,514.5970554659993
18723,497.0384087134798
18724,485.81337115538724
18725,479.7599777742487
18726,479.09949427443235
18727,487.1464410190254
18728,507.21116212916877
18729,537.3795551476728
18730,568.7578834798409
18731,590.0355626032916
18732,595.2127607699693
18733,587.8895740467066
18734,578.1841345315755
18735,574.8237039161729
18736,579.1732517223941
18737,585.9690483154069
18738,589.284966878253
18739,587.7398177176912
18740,584.3057626110715
18741,581.6893665373636
18742,578.4931754432229
18743,570.188219244
18744,553.792485844895
18745,531.3749662353732
18746,508.84520742776226
18747,491.4093687037018
18748,480.4244489386227
18749,474.71062252633186
18750,474.47088257929306
18751,483.0013287238426
18752,503.5939958168874
18753,534.3168356277191
18754,566.2587704736351
18755,588.0927067472271
18756,593.8033462132136
18757,586.9765523345635
18758,577.7176281383937
18759,574.7425557899846
18760,579.4066955235039
18761,586.4384727072807
18762,589.905746267054
18763,588.4231812611397
18764,584.9606731229138
18765,582.2243810958627
18766,578.8182600849295
18767,570.2164910686832
18768,553.4418571443634
18769,530.5696669058105
18770,507.517163874226
18771,489.4994196794286
18772,477.883381269409
18773,471.50001239153426
18774,470.5637309221585
18775,478.38248243357134
18776,498.26034948188783
18777,528.2773118888698
18778,559.5340802545567
18779,580.7148938660152
18780,585.8151240424495
18781,578.430443220104
18782,568.6749191997013
18783,565.2720874319676
18784,569.5835014818222
18785,576.3422926787005
18786,579.6194341215513
18787,578.0310334577205
18788,574.5467032398626
18789,571.8705673253364
18790,568.6027931093649
18791,560.2120499165707
18792,543.713940447831
18793,521.1750063994652
18794,498.5022460369295
18795,480.8991401224963
18796,469.7198548173824
18797,463.7815598301472
18798,463.284061121396
18799,471.5200859983877
18800,491.7781173058946
18801,522.1223889985773
18802,553.637962181446
18803,574.993769507166
18804,580.1704656125196
18805,572.7498405090478
18806,562.8331519566472
18807,559.1324263559335
18808,562.9992250682925
18809,569.1584040521026
18810,571.674559066367
18811,569.1594781461055
18812,564.5806477044358
18813,560.6423685530187
18814,555.9473697819416
18815,545.9693193262456
18816,527.7312769606119
18817,503.3096900903265
18818,478.623869752805
18819,458.8919432609427
18820,445.4849525562506
18821,437.2390373829864
18822,434.37490382510305
18823,440.2079176585091
18824,458.0507212029536
18825,485.99298827702466
18826,515.1462389695035
18827,534.2066050419688
18828,537.1823867946756
18829,527.6831616895648
18830,515.8378043017191
18831,510.38547080840516
18832,512.7040486636704
18833,517.5436031507077
18834,518.9925168312902
18835,515.6846473226699
18836,510.60755337281057
18837,506.48334900031557
18838,501.9300769215421
18839,492.4340031330257
18840,475.027881180445
18841,451.79478894688174
18842,428.65747752097593
18843,410.83423031937696
18844,399.6929029690921
18845,394.0630839709236
18846,394.1555773009666
18847,403.2725465014984
18848,424.71021864911074
18849,456.53876207743804
18850,489.84725841426337
18851,513.3066581757066
18852,520.8975588052938
18853,516.1995631232696
18854,509.30957508373695
18855,508.93308307391845
18856,516.4129281463313
18857,526.4630853732177
18858,533.1351506553233
18859,535.0258545580633
18860,535.085649198018
18861,535.999923919607
18862,536.3507369545956
18863,531.589460938544
18864,518.7153868881238
18865,499.7798856963881
18866,480.67606307422494
18867,466.594902745376
18868,458.87956520596566
18869,456.3377792844807
18870,459.16152508199264
18871,470.6373457149606
18872,494.0491844549263
18873,527.4583597616979
18874,561.9485978144363
18875,586.189011245693
18876,594.1618628961855
18877,589.4518728444424
18878,582.1644264393581
18879,581.0167347131005
18880,587.3664461811782
18881,595.9452401931981
18882,600.8250964968562
18883,600.6255652680925
18884,598.3220865789472
18885,596.6269182810978
18886,594.1505629323668
18887,586.3740952684991
18888,570.3274385824242
18889,548.0931929051018
18890,525.595954809067
18891,508.05812752307884
18892,496.85389248861736
18893,490.8212833271581
18894,490.18156438624914
18895,498.24925467663945
18896,518.3346969693869
18897,548.5237874612809
18898,579.9227882151979
18899,601.2211133710384
18900,606.4189298453864
18901,599.1163323751049
18902,589.4314517315202
18903,586.0915482835836
18904,590.4615902348447
18905,597.2778466363073
18906,600.6141893610136
18907,599.0894274097959
18908,595.6757212593513
18909,593.0796345921062
18910,589.9037120614631
18911,581.6189822961576
18912,565.2434319180529
18913,542.8460506379424
18914,520.3363841956477
18915,502.92059060378637
18916,491.9556674735659
18917,486.26178794048155
18918,486.0419438632498
18919,494.5922336194161
18920,515.2046908223837
18921,545.9472660038456
18922,577.9088802470088
18923,599.762438717322
18924,605.4926419575729
18925,598.685352213052
18926,589.4458713006826
18927,586.4901801790878
18928,591.1736378828812
18929,598.2246685856742
18930,601.711130024335
18931,600.2476860750077
18932,596.8042309934613
18933,594.0869228523264
18934,590.699715391661
18935,582.1167884301781
18936,565.3609239125565
18937,542.5074292863194
18938,519.4735469311348
18939,501.4743473427054
18940,489.87677634130597
18941,483.5117965518598
18942,482.5938247348487
18943,490.4308053556014
18944,510.3268198651665
18945,540.36184699344
18946,571.6365962475057
18947,592.8353058333403
18948,597.9533459939846
18949,590.5863880971592
18950,580.8484988812202
18951,577.4632127415334
18952,581.7920821945381
18953,588.5682375281091
18954,591.8626508068028
18955,590.2914286507516
18956,586.8241825920961
18957,584.1650354758447
18958,580.9141536900353
18959,572.5402055618295
18960,556.0587928003315
18961,533.536456117494
18962,510.88019280312943
18963,493.2934826498916
18964,482.130490857035
18965,476.2083861792431
18966,475.7269736305141
18967,483.9789795791335
18968,504.2528859383647
18969,534.6129257399955
18970,566.1441591720388
18971,587.5155179795836
18972,592.7076558994181
18973,585.3023620503103
18974,575.4008933073169
18975,571.7152751952987
18976,575.5970682063938
18977,581.7711274386003
18978,584.3020477979055
18979,581.801616475936
18980,577.2373190485182
18981,573.3134554995031
18982,568.6327540991633
18983,558.6688819703018
18984,540.4448980848804
18985,516.037249052544
18986,491.3652451240062
18987,471.64701283374814
18988,458.25359335363316
18989,450.0211256657669
18990,447.17031510094745
18991,453.0165266911223
18992,470.8724020196427
18993,498.82761417710407
18994,527.9936825346035
18995,547.0667381425511
18996,550.0550805995205
18997,540.5682866750607
18998,528.7352302599529
18999,523.2950668559515
19000,525.6256832504832
19001,530.4771440686103
19002,531.9378312230903
19003,528.6416016912482
19004,523.5760135894019
19005,519.4631803141328
19006,514.9211439683063
19007,505.43616994347514
19008,488.04101119015485
19009,464.8187450044053
19010,441.6921218981146
19011,423.8794247190011
19012,412.7485085344705
19013,407.1289612952229
19014,407.2315864363596
19015,416.35854696742626
19016,437.80606944227554
19017,469.64432168152587
19018,502.9623848073053
19019,526.4312088407211
19020,534.031390739503
19021,529.3425328461667
19022,522.4615386480338
19023,522.0938960735215
19024,529.5824457256941
19025,539.6411622381155
19026,546.3216410796774
19027,548.2206123956912
19028,548.2885278902658
19029,549.2107765056903
19030,549.5694160807969
19031,544.8158188668317
19032,531.949275507092
19033,513.0211565289248
19034,493.92456728821236
19035,479.8504911625492
19036,472.1420883119265
19037,469.60708723693995
19038,472.4374677209493
19039,483.9197725729181
19040,507.33794476529204
19041,540.7533024681312
19042,575.2495715819646
19043,599.4958644679115
19044,607.4744437060132
19045,602.7700291245567
19046,595.4880058299647
19047,594.3455846219192
19048,600.7004137937314
19049,609.2841724812619
19050,614.168840228667
19051,613.9739670178815
19052,611.674992736342
19053,609.9841750598754
19054,607.5120163817921
19055,599.7395912812284
19056,583.6968229045659
19057,561.4663111455268
19058,538.9726524499139
19059,521.4382499280771
19060,510.2372849128171
19061,504.20779092703
19062,503.5710322291
19063,511.641527749065
19064,531.7296201883431
19065,561.9212056825212
19066,593.3225462430664
19067,614.6230559680132
19068,619.8229017419792
19069,612.5221782778735
19070,602.839016334681
19071,599.5006762769476
19072,603.8721263132827
19073,610.6896355101479
19074,614.0270757651219
19075,612.5032561121653
19076,609.0903370711445
19077,606.4948823774513
19078,603.3194367468142
19079,595.0350288790976
19080,578.6596454755608
19081,556.2622763388356
19082,533.7524673076099
19083,516.3363765032269
19084,505.3710016550494
